<?xml version="1.0"?>
<!DOCTYPE RTKGEOMETRY>
<RTKThreeDCircularGeometry version="3">
    <SourceToIsocenterDistance>380</SourceToIsocenterDistance>
    <ProjectionOffsetX>-280.54681</ProjectionOffsetX>
    <ProjectionOffsetY>-280.54681</ProjectionOffsetY>
  <Projection>
    <GantryAngle>0</GantryAngle>
    <Matrix>
                        1                   0                   0           280.54681
                        0                   1                   0           280.54681
                        0                   0                   0                   1
    </Matrix>
  </Projection>
  <Projection>
    <GantryAngle>6</GantryAngle>
    <Matrix>
        0.994521895368273                   0  -0.104528463267653           280.54681
                        0                   1                   0           280.54681
                        0                   0                   0                   1
    </Matrix>
  </Projection>
  <Projection>
    <GantryAngle>12</GantryAngle>
    <Matrix>
        0.978147600733806                   0  -0.207911690817759           280.54681
                        0                   1                   0           280.54681
                        0                   0                   0                   1
    </Matrix>
  </Projection>
  <Projection>
    <GantryAngle>18</GantryAngle>
    <Matrix>
        0.951056516295154                   0  -0.309016994374947           280.54681
                        0                   1                   0           280.54681
                        0                   0                   0                   1
    </Matrix>
  </Projection>
  <Projection>
    <GantryAngle>24</GantryAngle>
    <Matrix>
        0.913545457642601                   0    -0.4067366430758           280.54681
                        0                   1                   0           280.54681
                        0                   0                   0                   1
    </Matrix>
  </Projection>
  <Projection>
    <GantryAngle>30</GantryAngle>
    <Matrix>
        0.866025403784439                   0                -0.5           280.54681
                        0                   1                   0           280.54681
                        0                   0                   0                   1
    </Matrix>
  </Projection>
  <Projection>
    <GantryAngle>36</GantryAngle>
    <Matrix>
        0.809016994374947                   0  -0.587785252292473           280.54681
                        0                   1                   0           280.54681
                        0                   0                   0                   1
    </Matrix>
  </Projection>
  <Projection>
    <GantryAngle>42</GantryAngle>
    <Matrix>
        0.743144825477394                   0  -0.669130606358858           280.54681
                        0                   1                   0           280.54681
                        0                   0                   0                   1
    </Matrix>
  </Projection>
  <Projection>
    <GantryAngle>48</GantryAngle>
    <Matrix>
        0.669130606358858                   0  -0.743144825477394           280.54681
                        0                   1                   0           280.54681
                        0                   0                   0                   1
    </Matrix>
  </Projection>
  <Projection>
    <GantryAngle>54</GantryAngle>
    <Matrix>
        0.587785252292473                   0  -0.809016994374947           280.54681
                        0                   1                   0           280.54681
                        0                   0                   0                   1
    </Matrix>
  </Projection>
  <Projection>
    <GantryAngle>60</GantryAngle>
    <Matrix>
                      0.5                   0  -0.866025403784439           280.54681
                        0                   1                   0           280.54681
                        0                   0                   0                   1
    </Matrix>
  </Projection>
  <Projection>
    <GantryAngle>66</GantryAngle>
    <Matrix>
          0.4067366430758                   0  -0.913545457642601           280.54681
                        0                   1                   0           280.54681
                        0                   0                   0                   1
    </Matrix>
  </Projection>
  <Projection>
    <GantryAngle>72</GantryAngle>
    <Matrix>
        0.309016994374947                   0  -0.951056516295154           280.54681
                        0                   1                   0           280.54681
                        0                   0                   0                   1
    </Matrix>
  </Projection>
  <Projection>
    <GantryAngle>78</GantryAngle>
    <Matrix>
        0.207911690817759                   0  -0.978147600733806           280.54681
                        0                   1                   0           280.54681
                        0                   0                   0                   1
    </Matrix>
  </Projection>
  <Projection>
    <GantryAngle>84</GantryAngle>
    <Matrix>
        0.104528463267653                   0  -0.994521895368273           280.54681
                        0                   1                   0           280.54681
                        0                   0                   0                   1
    </Matrix>
  </Projection>
  <Projection>
    <GantryAngle>90</GantryAngle>
    <Matrix>
      6.12323399573677e-17                   0                  -1           280.54681
                        0                   1                   0           280.54681
                        0                   0                   0                   1
    </Matrix>
  </Projection>
  <Projection>
    <GantryAngle>96</GantryAngle>
    <Matrix>
       -0.104528463267654                   0  -0.994521895368273           280.54681
                        0                   1                   0           280.54681
                        0                   0                   0                   1
    </Matrix>
  </Projection>
  <Projection>
    <GantryAngle>102</GantryAngle>
    <Matrix>
       -0.207911690817759                   0  -0.978147600733806           280.54681
                        0                   1                   0           280.54681
                        0                   0                   0                   1
    </Matrix>
  </Projection>
  <Projection>
    <GantryAngle>108</GantryAngle>
    <Matrix>
       -0.309016994374947                   0  -0.951056516295154           280.54681
                        0                   1                   0           280.54681
                        0                   0                   0                   1
    </Matrix>
  </Projection>
  <Projection>
    <GantryAngle>114</GantryAngle>
    <Matrix>
         -0.4067366430758                   0  -0.913545457642601           280.54681
                        0                   1                   0           280.54681
                        0                   0                   0                   1
    </Matrix>
  </Projection>
  <Projection>
    <GantryAngle>120</GantryAngle>
    <Matrix>
                     -0.5                   0  -0.866025403784439           280.54681
                        0                   1                   0           280.54681
                        0                   0                   0                   1
    </Matrix>
  </Projection>
  <Projection>
    <GantryAngle>126</GantryAngle>
    <Matrix>
       -0.587785252292473                   0  -0.809016994374947           280.54681
                        0                   1                   0           280.54681
                        0                   0                   0                   1
    </Matrix>
  </Projection>
  <Projection>
    <GantryAngle>132</GantryAngle>
    <Matrix>
       -0.669130606358858                   0  -0.743144825477394           280.54681
                        0                   1                   0           280.54681
                        0                   0                   0                   1
    </Matrix>
  </Projection>
  <Projection>
    <GantryAngle>138</GantryAngle>
    <Matrix>
       -0.743144825477394                   0  -0.669130606358858           280.54681
                        0                   1                   0           280.54681
                        0                   0                   0                   1
    </Matrix>
  </Projection>
  <Projection>
    <GantryAngle>144</GantryAngle>
    <Matrix>
       -0.809016994374947                   0  -0.587785252292473           280.54681
                        0                   1                   0           280.54681
                        0                   0                   0                   1
    </Matrix>
  </Projection>
  <Projection>
    <GantryAngle>150</GantryAngle>
    <Matrix>
       -0.866025403784439                   0                -0.5           280.54681
                        0                   1                   0           280.54681
                        0                   0                   0                   1
    </Matrix>
  </Projection>
  <Projection>
    <GantryAngle>156</GantryAngle>
    <Matrix>
       -0.913545457642601                   0    -0.4067366430758           280.54681
                        0                   1                   0           280.54681
                        0                   0                   0                   1
    </Matrix>
  </Projection>
  <Projection>
    <GantryAngle>162</GantryAngle>
    <Matrix>
       -0.951056516295154                   0  -0.309016994374948           280.54681
                        0                   1                   0           280.54681
                        0                   0                   0                   1
    </Matrix>
  </Projection>
  <Projection>
    <GantryAngle>168</GantryAngle>
    <Matrix>
       -0.978147600733806                   0  -0.207911690817759           280.54681
                        0                   1                   0           280.54681
                        0                   0                   0                   1
    </Matrix>
  </Projection>
  <Projection>
    <GantryAngle>174</GantryAngle>
    <Matrix>
       -0.994521895368273                   0  -0.104528463267654           280.54681
                        0                   1                   0           280.54681
                        0                   0                   0                   1
    </Matrix>
  </Projection>
  <Projection>
    <GantryAngle>180</GantryAngle>
    <Matrix>
                       -1                   0 -1.22464679914735e-16           280.54681
                        0                   1                   0           280.54681
                        0                   0                   0                   1
    </Matrix>
  </Projection>
  <Projection>
    <GantryAngle>186</GantryAngle>
    <Matrix>
       -0.994521895368273                   0   0.104528463267653           280.54681
                        0                   1                   0           280.54681
                        0                   0                   0                   1
    </Matrix>
  </Projection>
  <Projection>
    <GantryAngle>192</GantryAngle>
    <Matrix>
       -0.978147600733806                   0    0.20791169081776           280.54681
                        0                   1                   0           280.54681
                        0                   0                   0                   1
    </Matrix>
  </Projection>
  <Projection>
    <GantryAngle>198</GantryAngle>
    <Matrix>
       -0.951056516295154                   0   0.309016994374947           280.54681
                        0                   1                   0           280.54681
                        0                   0                   0                   1
    </Matrix>
  </Projection>
  <Projection>
    <GantryAngle>204</GantryAngle>
    <Matrix>
       -0.913545457642601                   0     0.4067366430758           280.54681
                        0                   1                   0           280.54681
                        0                   0                   0                   1
    </Matrix>
  </Projection>
  <Projection>
    <GantryAngle>210</GantryAngle>
    <Matrix>
       -0.866025403784439                   0                 0.5           280.54681
                        0                   1                   0           280.54681
                        0                   0                   0                   1
    </Matrix>
  </Projection>
  <Projection>
    <GantryAngle>216</GantryAngle>
    <Matrix>
       -0.809016994374948                   0   0.587785252292473           280.54681
                        0                   1                   0           280.54681
                        0                   0                   0                   1
    </Matrix>
  </Projection>
  <Projection>
    <GantryAngle>222</GantryAngle>
    <Matrix>
       -0.743144825477394                   0   0.669130606358858           280.54681
                        0                   1                   0           280.54681
                        0                   0                   0                   1
    </Matrix>
  </Projection>
  <Projection>
    <GantryAngle>228</GantryAngle>
    <Matrix>
       -0.669130606358858                   0   0.743144825477394           280.54681
                        0                   1                   0           280.54681
                        0                   0                   0                   1
    </Matrix>
  </Projection>
  <Projection>
    <GantryAngle>234</GantryAngle>
    <Matrix>
       -0.587785252292473                   0   0.809016994374947           280.54681
                        0                   1                   0           280.54681
                        0                   0                   0                   1
    </Matrix>
  </Projection>
  <Projection>
    <GantryAngle>240</GantryAngle>
    <Matrix>
                     -0.5                   0   0.866025403784438           280.54681
                        0                   1                   0           280.54681
                        0                   0                   0                   1
    </Matrix>
  </Projection>
  <Projection>
    <GantryAngle>246</GantryAngle>
    <Matrix>
         -0.4067366430758                   0   0.913545457642601           280.54681
                        0                   1                   0           280.54681
                        0                   0                   0                   1
    </Matrix>
  </Projection>
  <Projection>
    <GantryAngle>252</GantryAngle>
    <Matrix>
       -0.309016994374948                   0   0.951056516295154           280.54681
                        0                   1                   0           280.54681
                        0                   0                   0                   1
    </Matrix>
  </Projection>
  <Projection>
    <GantryAngle>258</GantryAngle>
    <Matrix>
        -0.20791169081776                   0   0.978147600733806           280.54681
                        0                   1                   0           280.54681
                        0                   0                   0                   1
    </Matrix>
  </Projection>
  <Projection>
    <GantryAngle>264</GantryAngle>
    <Matrix>
       -0.104528463267653                   0   0.994521895368273           280.54681
                        0                   1                   0           280.54681
                        0                   0                   0                   1
    </Matrix>
  </Projection>
  <Projection>
    <GantryAngle>270</GantryAngle>
    <Matrix>
      -1.83697019872103e-16                   0                   1           280.54681
                        0                   1                   0           280.54681
                        0                   0                   0                   1
    </Matrix>
  </Projection>
  <Projection>
    <GantryAngle>276</GantryAngle>
    <Matrix>
        0.104528463267653                   0   0.994521895368273           280.54681
                        0                   1                   0           280.54681
                        0                   0                   0                   1
    </Matrix>
  </Projection>
  <Projection>
    <GantryAngle>282</GantryAngle>
    <Matrix>
        0.207911690817759                   0   0.978147600733806           280.54681
                        0                   1                   0           280.54681
                        0                   0                   0                   1
    </Matrix>
  </Projection>
  <Projection>
    <GantryAngle>288</GantryAngle>
    <Matrix>
        0.309016994374947                   0   0.951056516295154           280.54681
                        0                   1                   0           280.54681
                        0                   0                   0                   1
    </Matrix>
  </Projection>
  <Projection>
    <GantryAngle>294</GantryAngle>
    <Matrix>
          0.4067366430758                   0   0.913545457642601           280.54681
                        0                   1                   0           280.54681
                        0                   0                   0                   1
    </Matrix>
  </Projection>
  <Projection>
    <GantryAngle>300</GantryAngle>
    <Matrix>
                      0.5                   0   0.866025403784439           280.54681
                        0                   1                   0           280.54681
                        0                   0                   0                   1
    </Matrix>
  </Projection>
  <Projection>
    <GantryAngle>306</GantryAngle>
    <Matrix>
        0.587785252292473                   0   0.809016994374948           280.54681
                        0                   1                   0           280.54681
                        0                   0                   0                   1
    </Matrix>
  </Projection>
  <Projection>
    <GantryAngle>312</GantryAngle>
    <Matrix>
        0.669130606358858                   0   0.743144825477395           280.54681
                        0                   1                   0           280.54681
                        0                   0                   0                   1
    </Matrix>
  </Projection>
  <Projection>
    <GantryAngle>318</GantryAngle>
    <Matrix>
        0.743144825477394                   0   0.669130606358858           280.54681
                        0                   1                   0           280.54681
                        0                   0                   0                   1
    </Matrix>
  </Projection>
  <Projection>
    <GantryAngle>324</GantryAngle>
    <Matrix>
        0.809016994374947                   0   0.587785252292473           280.54681
                        0                   1                   0           280.54681
                        0                   0                   0                   1
    </Matrix>
  </Projection>
  <Projection>
    <GantryAngle>330</GantryAngle>
    <Matrix>
        0.866025403784438                   0                 0.5           280.54681
                        0                   1                   0           280.54681
                        0                   0                   0                   1
    </Matrix>
  </Projection>
  <Projection>
    <GantryAngle>336</GantryAngle>
    <Matrix>
        0.913545457642601                   0     0.4067366430758           280.54681
                        0                   1                   0           280.54681
                        0                   0                   0                   1
    </Matrix>
  </Projection>
  <Projection>
    <GantryAngle>342</GantryAngle>
    <Matrix>
        0.951056516295154                   0   0.309016994374948           280.54681
                        0                   1                   0           280.54681
                        0                   0                   0                   1
    </Matrix>
  </Projection>
  <Projection>
    <GantryAngle>348</GantryAngle>
    <Matrix>
        0.978147600733806                   0    0.20791169081776           280.54681
                        0                   1                   0           280.54681
                        0                   0                   0                   1
    </Matrix>
  </Projection>
  <Projection>
    <GantryAngle>354</GantryAngle>
    <Matrix>
        0.994521895368273                   0   0.104528463267653           280.54681
                        0                   1                   0           280.54681
                        0                   0                   0                   1
    </Matrix>
  </Projection>
</RTKThreeDCircularGeometry>
