<?xml version="1.0"?>
<!DOCTYPE RTKGEOMETRY>
<RTKThreeDCircularGeometry version="3">
    <SourceToIsocenterDistance>380</SourceToIsocenterDistance>
    <ProjectionOffsetX>-280.54681</ProjectionOffsetX>
    <ProjectionOffsetY>-280.54681</ProjectionOffsetY>
  <Projection>
    <GantryAngle>0</GantryAngle>
    <Matrix>
                        1                   0                   0           280.54681
                        0                   1                   0           280.54681
                        0                   0                   0                   1
    </Matrix>
  </Projection>
  <Projection>
    <GantryAngle>0.75</GantryAngle>
    <Matrix>
        0.999914327574007                   0 -0.0130895955713444           280.54681
                        0                   1                   0           280.54681
                        0                   0                   0                   1
    </Matrix>
  </Projection>
  <Projection>
    <GantryAngle>1.5</GantryAngle>
    <Matrix>
        0.999657324975557                   0 -0.0261769483078732           280.54681
                        0                   1                   0           280.54681
                        0                   0                   0                   1
    </Matrix>
  </Projection>
  <Projection>
    <GantryAngle>2.25</GantryAngle>
    <Matrix>
        0.999229036240723                   0 -0.0392598157590686           280.54681
                        0                   1                   0           280.54681
                        0                   0                   0                   1
    </Matrix>
  </Projection>
  <Projection>
    <GantryAngle>3</GantryAngle>
    <Matrix>
        0.998629534754574                   0 -0.0523359562429438           280.54681
                        0                   1                   0           280.54681
                        0                   0                   0                   1
    </Matrix>
  </Projection>
  <Projection>
    <GantryAngle>3.75</GantryAngle>
    <Matrix>
        0.997858923238603                   0 -0.0654031292301431           280.54681
                        0                   1                   0           280.54681
                        0                   0                   0                   1
    </Matrix>
  </Projection>
  <Projection>
    <GantryAngle>4.5</GantryAngle>
    <Matrix>
        0.996917333733128                   0 -0.0784590957278449           280.54681
                        0                   1                   0           280.54681
                        0                   0                   0                   1
    </Matrix>
  </Projection>
  <Projection>
    <GantryAngle>5.25</GantryAngle>
    <Matrix>
        0.995804927574662                   0 -0.0915016186634024           280.54681
                        0                   1                   0           280.54681
                        0                   0                   0                   1
    </Matrix>
  </Projection>
  <Projection>
    <GantryAngle>6</GantryAngle>
    <Matrix>
        0.994521895368273                   0  -0.104528463267653           280.54681
                        0                   1                   0           280.54681
                        0                   0                   0                   1
    </Matrix>
  </Projection>
  <Projection>
    <GantryAngle>6.75</GantryAngle>
    <Matrix>
        0.993068456954926                   0  -0.117537397457838           280.54681
                        0                   1                   0           280.54681
                        0                   0                   0                   1
    </Matrix>
  </Projection>
  <Projection>
    <GantryAngle>7.5</GantryAngle>
    <Matrix>
         0.99144486137381                   0  -0.130526192220052           280.54681
                        0                   1                   0           280.54681
                        0                   0                   0                   1
    </Matrix>
  </Projection>
  <Projection>
    <GantryAngle>8.25</GantryAngle>
    <Matrix>
         0.98965138681967                   0  -0.143492621991179           280.54681
                        0                   1                   0           280.54681
                        0                   0                   0                   1
    </Matrix>
  </Projection>
  <Projection>
    <GantryAngle>9</GantryAngle>
    <Matrix>
        0.987688340595138                   0  -0.156434465040231           280.54681
                        0                   1                   0           280.54681
                        0                   0                   0                   1
    </Matrix>
  </Projection>
  <Projection>
    <GantryAngle>9.75</GantryAngle>
    <Matrix>
        0.985556059058078                   0  -0.169349503849025           280.54681
                        0                   1                   0           280.54681
                        0                   0                   0                   1
    </Matrix>
  </Projection>
  <Projection>
    <GantryAngle>10.5</GantryAngle>
    <Matrix>
        0.983254907563955                   0  -0.182235525492147           280.54681
                        0                   1                   0           280.54681
                        0                   0                   0                   1
    </Matrix>
  </Projection>
  <Projection>
    <GantryAngle>11.25</GantryAngle>
    <Matrix>
         0.98078528040323                   0  -0.195090322016128           280.54681
                        0                   1                   0           280.54681
                        0                   0                   0                   1
    </Matrix>
  </Projection>
  <Projection>
    <GantryAngle>12</GantryAngle>
    <Matrix>
        0.978147600733806                   0  -0.207911690817759           280.54681
                        0                   1                   0           280.54681
                        0                   0                   0                   1
    </Matrix>
  </Projection>
  <Projection>
    <GantryAngle>12.75</GantryAngle>
    <Matrix>
        0.975342320508513                   0  -0.220697435021501           280.54681
                        0                   1                   0           280.54681
                        0                   0                   0                   1
    </Matrix>
  </Projection>
  <Projection>
    <GantryAngle>13.5</GantryAngle>
    <Matrix>
        0.972369920397677                   0  -0.233445363855905           280.54681
                        0                   1                   0           280.54681
                        0                   0                   0                   1
    </Matrix>
  </Projection>
  <Projection>
    <GantryAngle>14.25</GantryAngle>
    <Matrix>
        0.969230909706754                   0  -0.246153293028993           280.54681
                        0                   1                   0           280.54681
                        0                   0                   0                   1
    </Matrix>
  </Projection>
  <Projection>
    <GantryAngle>15</GantryAngle>
    <Matrix>
        0.965925826289068                   0  -0.258819045102521           280.54681
                        0                   1                   0           280.54681
                        0                   0                   0                   1
    </Matrix>
  </Projection>
  <Projection>
    <GantryAngle>15.75</GantryAngle>
    <Matrix>
        0.962455236453647                   0  -0.271440449865074           280.54681
                        0                   1                   0           280.54681
                        0                   0                   0                   1
    </Matrix>
  </Projection>
  <Projection>
    <GantryAngle>16.5</GantryAngle>
    <Matrix>
        0.958819734868193                   0  -0.284015344703923           280.54681
                        0                   1                   0           280.54681
                        0                   0                   0                   1
    </Matrix>
  </Projection>
  <Projection>
    <GantryAngle>17.25</GantryAngle>
    <Matrix>
        0.955019944457187                   0  -0.296541574975571           280.54681
                        0                   1                   0           280.54681
                        0                   0                   0                   1
    </Matrix>
  </Projection>
  <Projection>
    <GantryAngle>18</GantryAngle>
    <Matrix>
        0.951056516295154                   0  -0.309016994374947           280.54681
                        0                   1                   0           280.54681
                        0                   0                   0                   1
    </Matrix>
  </Projection>
  <Projection>
    <GantryAngle>18.75</GantryAngle>
    <Matrix>
        0.946930129495106                   0  -0.321439465303162           280.54681
                        0                   1                   0           280.54681
                        0                   0                   0                   1
    </Matrix>
  </Projection>
  <Projection>
    <GantryAngle>19.5</GantryAngle>
    <Matrix>
        0.942641491092178                   0  -0.333806859233771           280.54681
                        0                   1                   0           280.54681
                        0                   0                   0                   1
    </Matrix>
  </Projection>
  <Projection>
    <GantryAngle>20.25</GantryAngle>
    <Matrix>
        0.938191335922484                   0  -0.346117057077493           280.54681
                        0                   1                   0           280.54681
                        0                   0                   0                   1
    </Matrix>
  </Projection>
  <Projection>
    <GantryAngle>21</GantryAngle>
    <Matrix>
        0.933580426497202                   0    -0.3583679495453           280.54681
                        0                   1                   0           280.54681
                        0                   0                   0                   1
    </Matrix>
  </Projection>
  <Projection>
    <GantryAngle>21.75</GantryAngle>
    <Matrix>
        0.928809552871924                   0  -0.370557437509836           280.54681
                        0                   1                   0           280.54681
                        0                   0                   0                   1
    </Matrix>
  </Projection>
  <Projection>
    <GantryAngle>22.5</GantryAngle>
    <Matrix>
        0.923879532511287                   0   -0.38268343236509           280.54681
                        0                   1                   0           280.54681
                        0                   0                   0                   1
    </Matrix>
  </Projection>
  <Projection>
    <GantryAngle>23.25</GantryAngle>
    <Matrix>
        0.918791210148898                   0  -0.394743856384267           280.54681
                        0                   1                   0           280.54681
                        0                   0                   0                   1
    </Matrix>
  </Projection>
  <Projection>
    <GantryAngle>24</GantryAngle>
    <Matrix>
        0.913545457642601                   0    -0.4067366430758           280.54681
                        0                   1                   0           280.54681
                        0                   0                   0                   1
    </Matrix>
  </Projection>
  <Projection>
    <GantryAngle>24.75</GantryAngle>
    <Matrix>
        0.908143173825081                   0  -0.418659737537428           280.54681
                        0                   1                   0           280.54681
                        0                   0                   0                   1
    </Matrix>
  </Projection>
  <Projection>
    <GantryAngle>25.5</GantryAngle>
    <Matrix>
        0.902585284349861                   0  -0.430511096808295           280.54681
                        0                   1                   0           280.54681
                        0                   0                   0                   1
    </Matrix>
  </Projection>
  <Projection>
    <GantryAngle>26.25</GantryAngle>
    <Matrix>
        0.896872741532688                   0  -0.442288690219001           280.54681
                        0                   1                   0           280.54681
                        0                   0                   0                   1
    </Matrix>
  </Projection>
  <Projection>
    <GantryAngle>27</GantryAngle>
    <Matrix>
        0.891006524188368                   0  -0.453990499739547           280.54681
                        0                   1                   0           280.54681
                        0                   0                   0                   1
    </Matrix>
  </Projection>
  <Projection>
    <GantryAngle>27.75</GantryAngle>
    <Matrix>
        0.884987637463042                   0  -0.465614520325111           280.54681
                        0                   1                   0           280.54681
                        0                   0                   0                   1
    </Matrix>
  </Projection>
  <Projection>
    <GantryAngle>28.5</GantryAngle>
    <Matrix>
        0.878817112661965                   0  -0.477158760259608           280.54681
                        0                   1                   0           280.54681
                        0                   0                   0                   1
    </Matrix>
  </Projection>
  <Projection>
    <GantryAngle>29.25</GantryAngle>
    <Matrix>
        0.872496007072797                   0  -0.488621241496955           280.54681
                        0                   1                   0           280.54681
                        0                   0                   0                   1
    </Matrix>
  </Projection>
  <Projection>
    <GantryAngle>30</GantryAngle>
    <Matrix>
        0.866025403784439                   0                -0.5           280.54681
                        0                   1                   0           280.54681
                        0                   0                   0                   1
    </Matrix>
  </Projection>
  <Projection>
    <GantryAngle>30.75</GantryAngle>
    <Matrix>
        0.859406411501453                   0  -0.511293086077052           280.54681
                        0                   1                   0           280.54681
                        0                   0                   0                   1
    </Matrix>
  </Projection>
  <Projection>
    <GantryAngle>31.5</GantryAngle>
    <Matrix>
        0.852640164354092                   0  -0.522498564715949           280.54681
                        0                   1                   0           280.54681
                        0                   0                   0                   1
    </Matrix>
  </Projection>
  <Projection>
    <GantryAngle>32.25</GantryAngle>
    <Matrix>
        0.845727821703973                   0  -0.533614515915611           280.54681
                        0                   1                   0           280.54681
                        0                   0                   0                   1
    </Matrix>
  </Projection>
  <Projection>
    <GantryAngle>33</GantryAngle>
    <Matrix>
        0.838670567945424                   0  -0.544639035015027           280.54681
                        0                   1                   0           280.54681
                        0                   0                   0                   1
    </Matrix>
  </Projection>
  <Projection>
    <GantryAngle>33.75</GantryAngle>
    <Matrix>
        0.831469612302545                   0  -0.555570233019602           280.54681
                        0                   1                   0           280.54681
                        0                   0                   0                   1
    </Matrix>
  </Projection>
  <Projection>
    <GantryAngle>34.5</GantryAngle>
    <Matrix>
        0.824126188622016                   0  -0.566406236924833           280.54681
                        0                   1                   0           280.54681
                        0                   0                   0                   1
    </Matrix>
  </Projection>
  <Projection>
    <GantryAngle>35.25</GantryAngle>
    <Matrix>
        0.816641555161679                   0  -0.577145190037234           280.54681
                        0                   1                   0           280.54681
                        0                   0                   0                   1
    </Matrix>
  </Projection>
  <Projection>
    <GantryAngle>36</GantryAngle>
    <Matrix>
        0.809016994374947                   0  -0.587785252292473           280.54681
                        0                   1                   0           280.54681
                        0                   0                   0                   1
    </Matrix>
  </Projection>
  <Projection>
    <GantryAngle>36.75</GantryAngle>
    <Matrix>
        0.801253812691061                   0  -0.598324600570659           280.54681
                        0                   1                   0           280.54681
                        0                   0                   0                   1
    </Matrix>
  </Projection>
  <Projection>
    <GantryAngle>37.5</GantryAngle>
    <Matrix>
        0.793353340291235                   0  -0.608761429008721           280.54681
                        0                   1                   0           280.54681
                        0                   0                   0                   1
    </Matrix>
  </Projection>
  <Projection>
    <GantryAngle>38.25</GantryAngle>
    <Matrix>
        0.785316930880745                   0  -0.619093949309834           280.54681
                        0                   1                   0           280.54681
                        0                   0                   0                   1
    </Matrix>
  </Projection>
  <Projection>
    <GantryAngle>39</GantryAngle>
    <Matrix>
        0.777145961456971                   0  -0.629320391049837           280.54681
                        0                   1                   0           280.54681
                        0                   0                   0                   1
    </Matrix>
  </Projection>
  <Projection>
    <GantryAngle>39.75</GantryAngle>
    <Matrix>
        0.768841832073459                   0  -0.639439001980585           280.54681
                        0                   1                   0           280.54681
                        0                   0                   0                   1
    </Matrix>
  </Projection>
  <Projection>
    <GantryAngle>40.5</GantryAngle>
    <Matrix>
        0.760405965600031                   0  -0.649448048330184           280.54681
                        0                   1                   0           280.54681
                        0                   0                   0                   1
    </Matrix>
  </Projection>
  <Projection>
    <GantryAngle>41.25</GantryAngle>
    <Matrix>
        0.751839807478977                   0  -0.659345815100069           280.54681
                        0                   1                   0           280.54681
                        0                   0                   0                   1
    </Matrix>
  </Projection>
  <Projection>
    <GantryAngle>42</GantryAngle>
    <Matrix>
        0.743144825477394                   0  -0.669130606358858           280.54681
                        0                   1                   0           280.54681
                        0                   0                   0                   1
    </Matrix>
  </Projection>
  <Projection>
    <GantryAngle>42.75</GantryAngle>
    <Matrix>
        0.734322509435686                   0  -0.678800745532942           280.54681
                        0                   1                   0           280.54681
                        0                   0                   0                   1
    </Matrix>
  </Projection>
  <Projection>
    <GantryAngle>43.5</GantryAngle>
    <Matrix>
        0.725374371012288                   0  -0.688354575693754           280.54681
                        0                   1                   0           280.54681
                        0                   0                   0                   1
    </Matrix>
  </Projection>
  <Projection>
    <GantryAngle>44.25</GantryAngle>
    <Matrix>
        0.716301943424654                   0   -0.69779045984168           280.54681
                        0                   1                   0           280.54681
                        0                   0                   0                   1
    </Matrix>
  </Projection>
  <Projection>
    <GantryAngle>45</GantryAngle>
    <Matrix>
        0.707106781186548                   0  -0.707106781186547           280.54681
                        0                   1                   0           280.54681
                        0                   0                   0                   1
    </Matrix>
  </Projection>
  <Projection>
    <GantryAngle>45.75</GantryAngle>
    <Matrix>
         0.69779045984168                   0  -0.716301943424654           280.54681
                        0                   1                   0           280.54681
                        0                   0                   0                   1
    </Matrix>
  </Projection>
  <Projection>
    <GantryAngle>46.5</GantryAngle>
    <Matrix>
        0.688354575693754                   0  -0.725374371012288           280.54681
                        0                   1                   0           280.54681
                        0                   0                   0                   1
    </Matrix>
  </Projection>
  <Projection>
    <GantryAngle>47.25</GantryAngle>
    <Matrix>
        0.678800745532942                   0  -0.734322509435686           280.54681
                        0                   1                   0           280.54681
                        0                   0                   0                   1
    </Matrix>
  </Projection>
  <Projection>
    <GantryAngle>48</GantryAngle>
    <Matrix>
        0.669130606358858                   0  -0.743144825477394           280.54681
                        0                   1                   0           280.54681
                        0                   0                   0                   1
    </Matrix>
  </Projection>
  <Projection>
    <GantryAngle>48.75</GantryAngle>
    <Matrix>
        0.659345815100069                   0  -0.751839807478977           280.54681
                        0                   1                   0           280.54681
                        0                   0                   0                   1
    </Matrix>
  </Projection>
  <Projection>
    <GantryAngle>49.5</GantryAngle>
    <Matrix>
        0.649448048330184                   0  -0.760405965600031           280.54681
                        0                   1                   0           280.54681
                        0                   0                   0                   1
    </Matrix>
  </Projection>
  <Projection>
    <GantryAngle>50.25</GantryAngle>
    <Matrix>
        0.639439001980585                   0   -0.76884183207346           280.54681
                        0                   1                   0           280.54681
                        0                   0                   0                   1
    </Matrix>
  </Projection>
  <Projection>
    <GantryAngle>51</GantryAngle>
    <Matrix>
        0.629320391049838                   0  -0.777145961456971           280.54681
                        0                   1                   0           280.54681
                        0                   0                   0                   1
    </Matrix>
  </Projection>
  <Projection>
    <GantryAngle>51.75</GantryAngle>
    <Matrix>
        0.619093949309834                   0  -0.785316930880745           280.54681
                        0                   1                   0           280.54681
                        0                   0                   0                   1
    </Matrix>
  </Projection>
  <Projection>
    <GantryAngle>52.5</GantryAngle>
    <Matrix>
        0.608761429008721                   0  -0.793353340291235           280.54681
                        0                   1                   0           280.54681
                        0                   0                   0                   1
    </Matrix>
  </Projection>
  <Projection>
    <GantryAngle>53.25</GantryAngle>
    <Matrix>
        0.598324600570659                   0  -0.801253812691061           280.54681
                        0                   1                   0           280.54681
                        0                   0                   0                   1
    </Matrix>
  </Projection>
  <Projection>
    <GantryAngle>54</GantryAngle>
    <Matrix>
        0.587785252292473                   0  -0.809016994374947           280.54681
                        0                   1                   0           280.54681
                        0                   0                   0                   1
    </Matrix>
  </Projection>
  <Projection>
    <GantryAngle>54.75</GantryAngle>
    <Matrix>
        0.577145190037234                   0  -0.816641555161679           280.54681
                        0                   1                   0           280.54681
                        0                   0                   0                   1
    </Matrix>
  </Projection>
  <Projection>
    <GantryAngle>55.5</GantryAngle>
    <Matrix>
        0.566406236924833                   0  -0.824126188622016           280.54681
                        0                   1                   0           280.54681
                        0                   0                   0                   1
    </Matrix>
  </Projection>
  <Projection>
    <GantryAngle>56.25</GantryAngle>
    <Matrix>
        0.555570233019602                   0  -0.831469612302545           280.54681
                        0                   1                   0           280.54681
                        0                   0                   0                   1
    </Matrix>
  </Projection>
  <Projection>
    <GantryAngle>57</GantryAngle>
    <Matrix>
        0.544639035015027                   0  -0.838670567945424           280.54681
                        0                   1                   0           280.54681
                        0                   0                   0                   1
    </Matrix>
  </Projection>
  <Projection>
    <GantryAngle>57.75</GantryAngle>
    <Matrix>
        0.533614515915612                   0  -0.845727821703973           280.54681
                        0                   1                   0           280.54681
                        0                   0                   0                   1
    </Matrix>
  </Projection>
  <Projection>
    <GantryAngle>58.5</GantryAngle>
    <Matrix>
        0.522498564715949                   0  -0.852640164354092           280.54681
                        0                   1                   0           280.54681
                        0                   0                   0                   1
    </Matrix>
  </Projection>
  <Projection>
    <GantryAngle>59.25</GantryAngle>
    <Matrix>
        0.511293086077052                   0  -0.859406411501453           280.54681
                        0                   1                   0           280.54681
                        0                   0                   0                   1
    </Matrix>
  </Projection>
  <Projection>
    <GantryAngle>60</GantryAngle>
    <Matrix>
                      0.5                   0  -0.866025403784439           280.54681
                        0                   1                   0           280.54681
                        0                   0                   0                   1
    </Matrix>
  </Projection>
  <Projection>
    <GantryAngle>60.75</GantryAngle>
    <Matrix>
        0.488621241496955                   0  -0.872496007072797           280.54681
                        0                   1                   0           280.54681
                        0                   0                   0                   1
    </Matrix>
  </Projection>
  <Projection>
    <GantryAngle>61.5</GantryAngle>
    <Matrix>
        0.477158760259608                   0  -0.878817112661965           280.54681
                        0                   1                   0           280.54681
                        0                   0                   0                   1
    </Matrix>
  </Projection>
  <Projection>
    <GantryAngle>62.25</GantryAngle>
    <Matrix>
        0.465614520325112                   0  -0.884987637463042           280.54681
                        0                   1                   0           280.54681
                        0                   0                   0                   1
    </Matrix>
  </Projection>
  <Projection>
    <GantryAngle>63</GantryAngle>
    <Matrix>
        0.453990499739547                   0  -0.891006524188368           280.54681
